#Energy(keV)    dEe/dx(keV/micro_m)  dEn/dx(keV/micro_m)  x(micro_m)
0.0011  0.6992  9.019  0.00017320508075688773
0.0012  0.6992  9.541  0.00017320508075688773
0.0013000000000000002  0.7278  10.05  0.00017320508075688773
0.0014  0.7553  10.53  0.00017320508075688773
0.0015  0.7818  11.01  0.00017320508075688773
0.0016  0.8074  11.47  0.00017320508075688773
0.0017  0.8323  11.92  0.0002449489742783178
0.0018000000000000002  0.8564  12.37  0.0002449489742783178
0.002  0.9027  13.22  0.0002449489742783178
0.0022500000000000003  0.9575  14.23  0.0002449489742783178
0.00249999  1.009  15.2  0.0002449489742783178
0.00274999  1.059  16.13  0.0002449489742783178
0.00299999  1.106  17.03  0.0002449489742783178
0.00324999  1.151  17.89  0.0002449489742783178
0.00349999  1.194  18.72  0.0002449489742783178
0.00374999  1.236  19.53  0.0002449489742783178
0.00399999  1.277  20.32  0.0002449489742783178
0.004499990000000001  1.354  21.82  0.0003
0.00499999  1.427  23.25  0.0003
0.005499990000000001  1.497  24.62  0.0003
0.00599999  1.564  25.94  0.0003741657386773942
0.006499990000000001  1.627  27.2  0.0003741657386773942
0.00699999  1.689  28.42  0.0003741657386773942
0.00799999  1.805  30.73  0.0003741657386773942
0.008999990000000001  1.915  32.92  0.0004123105625617661
0.00999999  2.019  34.99  0.0004123105625617661
0.0109999  2.117  36.95  0.0004123105625617661
0.0119999  2.211  38.83  0.0004123105625617661
0.0129999  2.301  40.64  0.0004898979485566356
0.013999900000000001  2.388  42.37  0.0005385164807134504
0.0149999  2.472  44.05  0.0005385164807134504
0.0159999  2.553  45.66  0.0005385164807134504
0.016999900000000002  2.632  47.22  0.0005385164807134504
0.0179999  2.708  48.74  0.0005385164807134504
0.0199999  2.855  51.64  0.0005385164807134504
0.0224999  3.028  55.06  0.0005385164807134504
0.024999900000000002  3.192  58.28  0.0006164414002968976
0.0274999  3.347  61.32  0.0006164414002968976
0.0299999  3.496  64.21  0.0007071067811865475
0.0324999  3.639  66.97  0.0007071067811865475
0.0349999  3.776  69.6  0.0007071067811865475
0.037499899999999996  3.909  72.14  0.0007810249675906655
0.0399999  4.037  74.57  0.0007810249675906655
0.044999899999999995  4.282  79.18  0.0007810249675906655
0.0499999  4.514  83.49  0.0007810249675906655
0.0549999  4.734  87.54  0.0009110433579144298
0.059999899999999995  4.944  91.37  0.0009110433579144298
0.0649999  5.146  95.0  0.0009486832980505137
0.0699999  5.34  98.46  0.0009486832980505137
0.0799999  5.709  104.9  0.0010770329614269009
0.0899999  6.056  110.9  0.0010770329614269009
0.0999999  6.383  116.4  0.0011532562594670796
0.11  6.695  121.5  0.0011916375287812986
0.12  6.992  126.4  0.0013190905958272918
0.13  7.278  130.9  0.0013190905958272918
0.13999899999999998  7.553  135.3  0.0013190905958272918
0.149999  7.818  139.4  0.001396424004376894
0.159999  8.074  143.3  0.001449137674618944
0.169999  8.323  147.0  0.0014866068747318507
0.179999  8.564  150.5  0.001562049935181331
0.199999  9.027  157.2  0.0016401219466856726
0.224999  9.575  164.9  0.0016911534525287765
0.249999  10.09  171.9  0.001805547008526779
0.27499900000000005  10.59  178.4  0.0019339079605813717
0.299999  11.06  184.4  0.0020124611797498106
0.32499900000000004  11.51  190.0  0.0021
0.349999  11.94  195.2  0.0021771541057077244
0.374999  12.36  200.1  0.0022561028345356956
0.39999900000000005  12.77  204.8  0.0023065125189341592
0.44999900000000004  13.54  213.3  0.0025
0.499999  14.27  221.1  0.0026286878856189833
0.549999  14.97  228.1  0.002792848008753788
0.5999990000000001  15.64  234.6  0.0028722813232690144
0.649999  16.27  240.5  0.003116087290176577
0.699999  16.89  246.1  0.003244996147917591
0.799999  18.05  256.0  0.0034885527085024817
0.899999  19.15  264.7  0.003732291521304305
0.9999990000000001  20.19  272.5  0.003976179070414208
1.1  21.17  279.4  0.0042201895692018385
1.2  22.11  285.6  0.004429446918070021
1.3  23.01  291.3  0.004673328578219169
1.4  23.88  296.5  0.004917316341257699
1.5  24.72  301.3  0.005161395160225577
1.6  25.53  305.6  0.005371219600798314
1.7  26.32  309.7  0.005615158056546584
1.8  27.08  313.4  0.005859180830116101
2.0  28.55  320.1  0.00631347764706584
2.25  30.28  327.3  0.0068014704292527805
2.5  31.92  333.4  0.007338937252763509
2.75  33.47  338.6  0.007826876771739799
3.0  34.96  343.1  0.008365404951345752
3.25  36.39  347.0  0.008853247991556545
3.5  37.76  350.4  0.00930859817588019
3.75  39.09  353.4  0.009848350115628506
4.0  40.37  356.0  0.01033585990617133
4.5  42.82  360.3  0.011279184367674819
5.0  45.14  363.6  0.012275585525749883
5.5  47.34  366.0  0.013218925826253811
6.0  49.44  367.9  0.014119490075778233
6.5  51.46  369.2  0.015117208737065187
7.0  53.41  370.1  0.01606051057718901
8.0  57.09  371.0  0.01787456293171948
9.0  60.56  370.8  0.019774984197212398
10.0  63.83  370.0  0.02156061223620517
11.0  66.95  368.6  0.02346252330845939
12.0  69.92  366.8  0.025278251521812185
13.0  72.78  364.7  0.027140560053175028
14.0  75.53  362.4  0.02901534077001337
15.0  78.18  359.9  0.030831639593119273
16.0  80.74  357.4  0.03273530204534548
17.0  83.23  354.7  0.034611269840905866
18.0  85.64  352.0  0.03647601951967895
20.0  90.27  346.5  0.04021840374753827
22.5  95.75  339.5  0.044964319187551366
25.0  100.9  332.6  0.04978865332583319
27.5  105.9  325.9  0.05462572653979076
30.0  110.6  319.4  0.0595154601763273
32.5  115.1  313.1  0.06443275564493575
35.0  119.4  307.0  0.06932532004974805
37.5  123.6  301.1  0.07427233670755216
40.0  127.7  295.5  0.07928240662341172
45.0  135.4  284.9  0.08942415780984465
50.0  148.2  275.1  0.09953516966379271
55.0  159.6  266.0  0.10964998860009062
60.0  168.8  257.6  0.11979090115697437
65.0  176.5  249.8  0.12984486897833122
70.0  183.0  242.6  0.1400515262323121
80.0  194.0  229.4  0.16054310947530573
90.0  203.7  217.8  0.18123556494242513
100.0  212.7  207.6  0.20220964368694191
110.0  221.4  198.4  0.22320400982061234
120.0  230.1  190.1  0.24427893892024338
130.0  238.8  182.6  0.2653924640979845
140.0  247.5  175.8  0.2865356871316382
150.0  256.3  169.5  0.3075897755127761
160.0  265.1  163.7  0.32858017286501023
170.0  274.0  158.4  0.3494265588074267
180.0  283.0  153.5  0.3701433776254818
200.0  301.0  144.7  0.41116559924195994
225.0  323.8  135.1  0.4613588191418909
250.0  346.7  127.0  0.5101540355618096
275.0  369.6  119.9  0.5577153485426056
300.0  392.6  113.6  0.6039036512557281
325.0  415.4  108.1  0.6486693610769666
350.0  438.2  103.1  0.6920315455237572
375.0  460.9  98.7  0.734180972240496
400.0  483.5  94.66  0.7750623265260672
450.0  528.2  87.63  0.8532282051127941
500.0  572.3  81.69  0.9271738240481124
550.0  615.8  76.59  0.997124174814752
600.0  658.5  72.17  1.0640966591433318
650.0  700.6  68.29  1.1244772830075316
700.0  742.0  64.85  1.1846869797545678
800.0  822.8  59.03  1.304735808506841
900.0  901.0  54.26  1.404904356175181
1000.0  976.7  50.29  1.5047720358911512
1100.0  1050.0  46.91  1.5946183524592963
1200.0  1121.0  44.0  1.6745323227695545
1300.0  1190.0  41.47  1.754294470720352
1400.0  1256.0  39.24  1.8339795991231747
1500.0  1321.0  37.26  1.9037549763559387
1600.0  1383.0  35.49  1.9832882216158094
1700.0  1444.0  33.9  2.043113812297298
1800.0  1503.0  32.46  2.1127407081797807
2000.0  1614.0  29.95  2.2322363786122654
2250.0  1744.0  27.35  2.3814762312481728
2500.0  1864.0  25.2  2.5108964952781307
2750.0  1974.0  23.39  2.6402503006343925
3000.0  2075.0  21.85  2.759677555440128
3250.0  2167.0  20.51  2.8691700960382254
3500.0  2252.0  19.34  2.988561366276423
3750.0  2329.0  18.31  3.088127542702859
4000.0  2399.0  17.39  3.197599515261409
4500.0  2521.0  15.83  3.396766321076562
5000.0  2621.0  14.54  3.5860209536476497
5500.0  2702.0  13.46  3.775275783303784
6000.0  2769.0  12.54  3.9546301786639924
6500.0  2823.0  11.75  4.1240567066906335
7000.0  2866.0  11.06  4.303446712810558
8000.0  2928.0  9.907  4.642534890552789
9000.0  2967.0  8.989  4.981694246940493
10000.0  2989.0  8.237  5.310961499578019
