#Energy(keV)    dEe/dx(keV/micro_m)  dEn/dx(keV/micro_m)  x(micro_m)
0.0011  0.8141  0.7096  0.00037416573867739413
0.0012  0.8141  0.7424  0.00037416573867739413
0.0013000000000000002  0.8474  0.7735  0.0004123105625617661
0.0014  0.8793  0.8033  0.0004123105625617661
0.0015  0.9102  0.8319  0.0004123105625617661
0.0016  0.9401  0.8593  0.0005385164807134503
0.0017  0.969  0.8856  0.0005385164807134503
0.0018000000000000002  0.9971  0.9111  0.0005385164807134503
0.002  1.051  0.9594  0.0005385164807134503
0.0022500000000000003  1.115  1.016  0.0005385164807134503
0.00249999  1.175  1.068  0.0006164414002968976
0.00274999  1.232  1.117  0.0006164414002968976
0.00299999  1.287  1.163  0.0006708203932499369
0.00324999  1.34  1.207  0.0006708203932499369
0.00349999  1.39  1.248  0.0007071067811865476
0.00374999  1.439  1.288  0.0007810249675906655
0.00399999  1.486  1.325  0.0007810249675906655
0.004499990000000001  1.577  1.396  0.0007810249675906655
0.00499999  1.662  1.461  0.0009110433579144298
0.005499990000000001  1.743  1.521  0.0009110433579144298
0.00599999  1.82  1.577  0.0009110433579144298
0.006499990000000001  1.895  1.63  0.0009486832980505137
0.00699999  1.966  1.68  0.0010770329614269007
0.00799999  2.102  1.771  0.0010770329614269007
0.008999990000000001  2.23  1.854  0.0011532562594670798
0.00999999  2.35  1.93  0.0012449899597988734
0.0109999  2.465  1.999  0.0013190905958272918
0.0119999  2.574  2.063  0.0013190905958272918
0.0129999  2.68  2.123  0.001449137674618944
0.013999900000000001  2.781  2.179  0.0014866068747318507
0.0149999  2.878  2.231  0.001562049935181331
0.0159999  2.973  2.28  0.0016155494421403514
0.016999900000000002  3.064  2.326  0.0017291616465790584
0.0179999  3.153  2.37  0.0017291616465790584
0.0199999  3.324  2.452  0.001857417562100671
0.0224999  3.525  2.543  0.002024845673131659
0.024999900000000002  3.716  2.624  0.0021
0.0274999  3.897  2.697  0.002193171219946131
0.0299999  4.071  2.764  0.002267156809750927
0.0324999  4.237  2.825  0.0024351591323771844
0.0349999  4.397  2.881  0.0026038433132583075
0.037499899999999996  4.551  2.933  0.002677685567799177
0.0399999  4.7  2.981  0.0027730849247724096
0.044999899999999995  4.985  3.067  0.003014962686336267
0.0499999  5.255  3.143  0.0031843366656181316
0.0549999  5.512  3.209  0.003426368339802363
0.059999899999999995  5.757  3.268  0.0035524639336663223
0.0649999  5.992  3.321  0.003721558813185679
0.0699999  6.218  3.368  0.003963584236521283
0.0799999  6.647  3.45  0.004302324952859791
0.0899999  7.05  3.518  0.0045891175622335065
0.0999999  7.432  3.574  0.005000999900019996
0.11  7.795  3.622  0.005341348144429456
0.12  8.141  3.662  0.005583009940883144
0.13  8.474  3.696  0.005923681287847955
0.13999899999999998  8.793  3.726  0.006212889826803627
0.149999  9.102  3.75  0.006554387843269577
0.159999  9.401  3.771  0.006795586803212803
0.169999  9.69  3.789  0.007137226352022192
0.179999  9.971  3.804  0.007427651041883968
0.199999  10.51  3.828  0.00794103267843673
0.224999  11.15  3.846  0.008644073113989724
0.249999  11.75  3.856  0.009329523031752482
0.27499900000000005  12.32  3.858  0.009964436762808022
0.299999  12.87  3.856  0.010653168542738822
0.32499900000000004  13.4  3.849  0.011289818421923357
0.349999  13.9  3.84  0.011926860441876564
0.374999  14.39  3.827  0.012564234954823157
0.39999900000000005  14.86  3.813  0.013135448222272432
0.44999900000000004  15.77  3.779  0.014296153328780438
0.499999  16.62  3.742  0.01545897797398004
0.549999  17.43  3.701  0.016672432336045033
0.5999990000000001  18.2  3.659  0.01777357589231835
0.649999  18.95  3.617  0.01882817038376273
0.699999  19.66  3.574  0.01993313823761828
0.799999  21.02  3.488  0.022037014316826135
0.899999  22.3  3.404  0.02414725657295255
0.9999990000000001  23.5  3.324  0.026201908327448214
1.1  24.65  3.246  0.028215244106688145
1.2  25.74  3.172  0.030174658241643764
1.3  26.8  3.101  0.0320937688656225
1.4  27.81  3.034  0.033994852551526095
1.5  28.78  2.97  0.03586558238757598
1.6  29.73  2.909  0.037741356626385336
1.7  30.64  2.85  0.03955085334098368
1.8  31.53  2.794  0.04136290608745957
2.0  33.24  2.69  0.0449144742816834
2.25  34.92  2.572  0.04918516036367067
2.5  36.52  2.465  0.05347476040152027
2.75  38.06  2.368  0.05761154398208748
3.0  39.55  2.28  0.061748198354283995
3.25  40.99  2.2  0.06577377897004247
3.5  42.38  2.126  0.0697329907576034
3.75  43.71  2.058  0.07361555542139175
4.0  45.0  1.994  0.07742370438050611
4.5  47.45  1.881  0.08498952876678396
5.0  49.75  1.781  0.09233872427102294
5.5  51.93  1.694  0.09955686817091025
6.0  54.0  1.615  0.10655618236404682
6.5  55.99  1.545  0.11338187685869379
7.0  57.91  1.482  0.12010387171111513
8.0  61.6  1.372  0.13312373943065153
9.0  65.14  1.279  0.1456842132833891
10.0  68.54  1.2  0.1578308588331192
11.0  71.83  1.132  0.16947982180778928
12.0  75.0  1.071  0.1808919290626312
13.0  78.04  1.018  0.19185278210127682
14.0  80.97  0.9708  0.20248034472511153
15.0  83.77  0.9281  0.2129215818088904
16.0  86.46  0.8895  0.22308807677686407
17.0  89.04  0.8544  0.23299959227432138
18.0  91.5  0.8223  0.24266264648684605
20.0  96.11  0.7657  0.26151957861697467
22.5  101.3  0.7063  0.28410950353692854
25.0  106.0  0.6564  0.3058707406732458
27.5  110.1  0.6138  0.3269350700062629
30.0  113.8  0.577  0.3473649665697449
32.5  117.1  0.5449  0.3673176962793925
35.0  120.1  0.5165  0.3867641141574539
37.5  122.7  0.4912  0.4059134144124828
40.0  125.1  0.4686  0.4248585411639973
45.0  129.0  0.4296  0.4617790380690748
50.0  132.1  0.3972  0.49799254010476907
55.0  134.4  0.3698  0.5336377891416612
60.0  136.2  0.3463  0.5688800488679491
65.0  137.5  0.3259  0.6038639995893116
70.0  138.3  0.3079  0.6387290661931708
80.0  139.0  0.2778  0.7082509583473927
90.0  138.5  0.2536  0.778010469081233
100.0  137.4  0.2335  0.8485234056877866
110.0  135.7  0.2167  0.9198603807100294
120.0  133.6  0.2023  0.9923224375171611
130.0  131.3  0.1899  1.0638433578304656
140.0  128.9  0.179  1.1436056531864467
150.0  126.4  0.1694  1.2135201028413167
160.0  123.8  0.1608  1.2933695063669934
170.0  121.3  0.1532  1.3732428809209245
180.0  118.7  0.1463  1.4630750151649776
200.0  113.9  0.1343  1.633009001812299
225.0  108.3  0.122  1.8530724351735417
250.0  103.1  0.112  2.083200638440762
275.0  98.46  0.1035  2.33332804594639
300.0  94.26  0.09638  2.5835677753834907
325.0  90.44  0.09021  2.853803108134827
350.0  86.98  0.08484  3.134083476871668
375.0  83.82  0.08012  3.4243954824172986
400.0  80.93  0.07593  3.7247549087154717
450.0  75.84  0.06881  4.365950321522222
500.0  71.48  0.063  5.0372024557287745
550.0  67.7  0.05815  5.748484333282993
600.0  64.4  0.05403  6.509752216482591
650.0  61.48  0.0505  7.2910941874316775
700.0  58.88  0.04743  8.122424234795915
800.0  54.46  0.04234  9.876729769007552
900.0  50.83  0.0383  11.770824586663418
1000.0  47.81  0.035  13.794785475678843
1100.0  45.61  0.03225  15.92864819656709
1200.0  43.46  0.02993  18.162445467777736
1300.0  41.37  0.02794  20.51608642626561
1400.0  39.49  0.02621  22.979956770194324
1500.0  37.8  0.02469  25.5635013251315
1600.0  36.25  0.02335  28.247585737545784
1700.0  34.84  0.02216  31.051450851771804
1800.0  33.53  0.02109  33.97511000718025
2000.0  31.2  0.01924  40.13801813742179
2250.0  28.74  0.01737  48.46603140344792
2500.0  26.67  0.01584  57.483728132402824
2750.0  24.9  0.01458  67.16017421061385
3000.0  23.38  0.01351  77.49671799502221
3250.0  22.06  0.01259  88.47384133177445
3500.0  20.89  0.0118  100.09029023836428
3750.0  19.85  0.01111  112.33737089677682
4000.0  18.92  0.01049  125.2042962521654
4500.0  17.33  0.009458  152.77341064465375
5000.0  16.01  0.008617  182.74949657933396
5500.0  14.89  0.007921  215.07388753635342
6000.0  13.94  0.007334  249.70750769650482
6500.0  13.11  0.006831  286.62051339707
7000.0  12.38  0.006396  325.7743435263127
8000.0  11.17  0.00568  410.709465802774
9000.0  10.19  0.005115  504.30057743373646
10000.0  9.389  0.004656  606.3641798457425
