#Energy(keV)    dEe/dx(keV/micro_m)  dEn/dx(keV/micro_m)  x(micro_m)
0.0011  0.7587  8.701  0.00017320508075688773
0.0012  0.7587  9.2  0.00017320508075688773
0.0013000000000000002  0.7897  9.682  0.00017320508075688773
0.0014  0.8195  10.15  0.00017320508075688773
0.0015  0.8483  10.6  0.00017320508075688773
0.0016  0.8761  11.05  0.00017320508075688773
0.0017  0.9031  11.48  0.00017320508075688773
0.0018000000000000002  0.9293  11.9  0.00017320508075688773
0.002  0.9795  12.71  0.0002449489742783178
0.0022500000000000003  1.039  13.68  0.0002449489742783178
0.00249999  1.095  14.6  0.0002449489742783178
0.00274999  1.149  15.49  0.0002449489742783178
0.00299999  1.2  16.34  0.0002449489742783178
0.00324999  1.249  17.16  0.0002449489742783178
0.00349999  1.296  17.95  0.0002449489742783178
0.00374999  1.341  18.72  0.0002449489742783178
0.00399999  1.385  19.46  0.0003
0.004499990000000001  1.469  20.89  0.0003
0.00499999  1.549  22.24  0.0003
0.005499990000000001  1.624  23.54  0.0003
0.00599999  1.697  24.78  0.0003
0.006499990000000001  1.766  25.97  0.0003741657386773942
0.00699999  1.833  27.12  0.0003741657386773942
0.00799999  1.959  29.31  0.0004123105625617661
0.008999990000000001  2.078  31.36  0.0004123105625617661
0.00999999  2.19  33.31  0.0004123105625617661
0.0109999  2.297  35.16  0.0004123105625617661
0.0119999  2.399  36.92  0.0004123105625617661
0.0129999  2.497  38.61  0.00046904157598234294
0.013999900000000001  2.592  40.24  0.0005385164807134504
0.0149999  2.683  41.8  0.0005385164807134504
0.0159999  2.771  43.31  0.0005385164807134504
0.016999900000000002  2.856  44.77  0.0005385164807134504
0.0179999  2.939  46.19  0.0005385164807134504
0.0199999  3.098  48.9  0.0005385164807134504
0.0224999  3.285  52.08  0.0005385164807134504
0.024999900000000002  3.463  55.07  0.0006164414002968976
0.0274999  3.632  57.89  0.0007071067811865475
0.0299999  3.794  60.58  0.0007071067811865475
0.0324999  3.949  63.13  0.0007071067811865475
0.0349999  4.098  65.57  0.0007071067811865475
0.037499899999999996  4.242  67.91  0.0007071067811865475
0.0399999  4.381  70.15  0.0007810249675906655
0.044999899999999995  4.646  74.4  0.0007810249675906655
0.0499999  4.898  78.36  0.0008366600265340756
0.0549999  5.137  82.08  0.0008366600265340756
0.059999899999999995  5.365  85.59  0.0009486832980505137
0.0649999  5.584  88.92  0.0009486832980505137
0.0699999  5.795  92.08  0.0009486832980505137
0.0799999  6.195  97.98  0.0010770329614269009
0.0899999  6.571  103.4  0.0010770329614269009
0.0999999  6.926  108.4  0.0011916375287812986
0.11  7.264  113.1  0.0012449899597988734
0.12  7.587  117.4  0.0013190905958272918
0.13  7.897  121.5  0.0013190905958272918
0.13999899999999998  8.195  125.4  0.0013190905958272918
0.149999  8.483  129.1  0.001449137674618944
0.159999  8.761  132.6  0.0014866068747318507
0.169999  9.031  135.9  0.0014866068747318507
0.179999  9.293  139.1  0.001562049935181331
0.199999  9.795  145.1  0.0016911534525287765
0.224999  10.39  151.9  0.0017291616465790584
0.249999  10.95  158.1  0.0018574175621006708
0.27499900000000005  11.49  163.9  0.0019339079605813717
0.299999  12.0  169.2  0.0021
0.32499900000000004  12.49  174.1  0.0021
0.349999  12.96  178.7  0.0022293496809607954
0.374999  13.41  183.0  0.0023430749027719966
0.39999900000000005  13.85  187.1  0.002420743687382041
0.44999900000000004  14.69  194.5  0.002549509756796392
0.499999  15.49  201.2  0.002714774392099646
0.549999  16.24  207.3  0.0029580398915498084
0.5999990000000001  16.97  212.9  0.0030364452901377958
0.649999  17.66  218.0  0.0032015621187164245
0.699999  18.33  222.7  0.0033301651610693427
0.799999  19.59  231.2  0.0036523964735499354
0.899999  20.78  238.5  0.003896151947755632
0.9999990000000001  21.9  245.0  0.004189272013130682
1.1  22.97  250.8  0.004512205669071391
1.2  23.99  256.0  0.004756048780237647
1.3  24.97  260.7  0.004964876634922564
1.4  25.92  265.0  0.005208646657242167
1.5  26.83  268.9  0.005452522352086235
1.6  27.71  272.4  0.005696490147450446
1.7  28.56  275.7  0.005905929224093361
1.8  29.39  278.7  0.006149796744608719
2.0  30.98  284.0  0.006637770710110436
2.25  32.85  289.7  0.0072539644333288545
2.5  34.63  294.4  0.007789736837660179
2.75  36.32  298.4  0.008405950273467005
3.0  37.94  301.7  0.008893818077743663
3.25  39.49  304.6  0.009430800602281866
3.5  40.98  307.0  0.010046890066085126
3.75  42.42  309.1  0.01053470455209827
4.0  43.81  310.9  0.011072488428533128
4.5  46.46  313.7  0.01209876026706869
5.0  48.98  315.7  0.013170041761513136
5.5  51.37  317.0  0.014280756282494285
6.0  53.65  317.9  0.015308167754502824
6.5  55.84  318.3  0.01633585014622747
7.0  57.95  318.4  0.01736375535418534
8.0  61.95  317.9  0.019463041899970314
9.0  65.71  316.6  0.02148906698765677
10.0  69.27  314.8  0.023546124946580912
11.0  72.65  312.7  0.025659306303951402
12.0  75.88  310.2  0.027717142709882635
13.0  78.97  307.7  0.02970420845604205
14.0  81.96  305.0  0.03181980515339464
15.0  84.83  302.2  0.03396483475596488
16.0  87.61  299.4  0.03599472183529135
17.0  90.31  296.5  0.038071117661555465
18.0  92.93  293.6  0.04021691186553239
20.0  97.96  288.0  0.04441272340219636
22.5  103.9  281.0  0.04972735665607011
25.0  109.5  274.3  0.05512005079823494
27.5  114.9  267.8  0.06048768469696952
30.0  120.0  261.6  0.06594581108758918
32.5  124.9  255.7  0.07140588211064969
35.0  129.6  250.1  0.07686748337235974
37.5  134.1  244.7  0.0823826438031701
40.0  138.6  239.6  0.08802562127017338
45.0  164.0  230.1  0.09892871170696604
50.0  183.8  221.4  0.10947186853251388
55.0  199.2  213.4  0.11986133655186731
60.0  211.4  206.1  0.13014034731780919
65.0  221.3  199.3  0.14042257653240808
70.0  229.5  193.0  0.1505943226021486
80.0  242.4  181.8  0.17107054100575003
90.0  252.8  172.0  0.19154482504103315
100.0  261.8  163.4  0.2122522555828324
110.0  270.1  155.8  0.23299141615089602
120.0  278.1  148.9  0.25371694858641197
130.0  286.1  142.7  0.27456221517171664
140.0  294.2  137.1  0.295277056338619
150.0  302.6  132.0  0.31604363622765763
160.0  311.1  127.3  0.3366793875484509
170.0  319.9  123.0  0.357063929850104
180.0  329.0  119.0  0.3774335173245747
200.0  347.8  111.9  0.41737819780146646
225.0  372.4  104.3  0.4661335967295213
250.0  398.0  97.75  0.5133137929181331
275.0  424.4  92.11  0.5588252947030942
300.0  451.3  87.17  0.602655938326339
325.0  478.4  82.8  0.6447405292053541
350.0  505.7  78.9  0.6853708558145729
375.0  533.0  75.4  0.7244851206201547
400.0  560.2  72.24  0.7622377778620003
450.0  613.9  66.74  0.8338221033290015
500.0  666.6  62.11  0.900708659889534
550.0  717.8  58.15  0.9636558618095986
600.0  767.4  54.73  1.023212949488033
650.0  815.4  51.73  1.079989467541235
700.0  861.8  49.07  1.1301030395499343
800.0  949.6  44.59  1.2300761155310673
900.0  1031.0  40.93  1.329744024239252
1000.0  1107.0  37.88  1.409679045031173
1100.0  1178.0  35.3  1.499242785542088
1200.0  1244.0  33.08  1.57891943429676
1300.0  1305.0  31.15  1.6486917025326477
1400.0  1363.0  29.45  1.7183962872399368
1500.0  1418.0  27.95  1.7880610643934953
1600.0  1470.0  26.61  1.8577004952359786
1700.0  1518.0  25.4  1.9174444059737428
1800.0  1565.0  24.3  1.9870381425629453
2000.0  1651.0  22.4  2.1064992997862593
2250.0  1747.0  20.44  2.245902591387258
2500.0  1833.0  18.82  2.3852587134313126
2750.0  1911.0  17.45  2.514701121405882
3000.0  1980.0  16.29  2.634220994905325
3250.0  2043.0  15.28  2.7636398933290858
3500.0  2100.0  14.41  2.883150034250732
3750.0  2151.0  13.63  2.992753402804849
4000.0  2197.0  12.94  3.102355762964654
4500.0  2276.0  11.77  3.3315710077979728
5000.0  2340.0  10.8  3.5409553202490427
5500.0  2392.0  9.992  3.750350070326769
6000.0  2435.0  9.305  3.959774539036282
6500.0  2469.0  8.713  4.159280684204902
7000.0  2496.0  8.197  4.358811292084115
8000.0  2536.0  7.34  4.74814301069376
9000.0  2561.0  6.656  5.137534261686242
10000.0  2575.0  6.096  5.526983022409242
