# E [GeV] Flux [m^-2 s^-1 sr^-1 GeV^-1]
0.4753080550640289 6.417217918454492
0.6060760420147395 8.406787615745174
0.8094178920896772 11.32015520956881
1.1331073098098288 14.673433053599972
1.56142763565899 18.574227465634063
2.1200391504370395 22.682098175399634
2.8904135496863748 33.92772314947437
4.319511695406303 44.734973506823245
6.2316034220908705 42.33417657879547
8.868994472282678 33.12656113177238
12.49807595466312 25.77297437169632
17.79496528741764 17.63117474042864
24.033485335365363 12.500474063670435
34.195718100414545 7.5993359818932165
45.38333262450292 5.007967857130396
65.22543138128293 2.93805689988065
86.2258007517272 1.7880413650661786
109.48766485732855 1.1686216826725022
140.9721207344984 0.7264390285053094
193.29968787895368 0.40651372568115485
268.9108753529697 0.21400312196009147
351.3544064440834 0.12835618844082064
467.59097096540415 0.06895716734000322
664.0698304974075 0.03221888698461882
1083.0120697700884 0.010988241608330684
1556.409852004392 0.004697135491760007
2119.9296789179084 0.002550349049269083
3442.3673454055734 0.0017071605382833095
4056.1335869526342 0.0009024310147706031
4921.927182382858 0.00041809752040851227
5698.563128181557 0.0002250196892915385
7046.141823296292 0.00010978867513621592
9282.109449126716 0.00006426015777739751
11017.959493252689 0.00003794457017551118
14179.466845300067 0.00001628730689408878
19799.389108454005 0.0000045463239863192725
22742.767374928535 0.000002140656147220776
28169.352265367663 7.554240545105227e-7
30739.148723558912 3.0242224145417203e-7
33837.96908884294 1.3609306484040835e-7