#E [GeV] Flux [m^-2 s^-1 sr^-1 GeV^-1]
0.47380507690798646 23.343634398353007
0.6513343482277376 33.3954907471534
0.8919361668945293 42.900815094391646
1.234945498456264 59.20772062981004
1.8194196102525113 77.4667615166207
2.6582748467168438 116.75198357438947
3.4534653570100717 158.6025553907306
5.671067158371711 171.92811614316767
9.082185485729768 135.48007258332495
13.80640421630775 98.76788120418486
19.656431097290376 64.3323613226306
27.277554464230292 41.5355189393854
38.56377789026002 27.86318600657411
56.64335791995803 16.247117777970747
80.92228646445623 8.82785102452184
107.14604715619515 5.438493137696552
174.8376302304801 2.238703540330115
257.28334148029023 1.040180456936776
359.9488546411316 0.5396757812114195
543.4265752738067 0.2391356777283683
790.2683488456316 0.10718892626088904
1051.4910877773225 0.055174793514241496
1389.9397358384556 0.030402265071566095
1830.2561174666218 0.01734952386304939
2328.023495931274 0.010251975080419801
3197.6638985577447 0.007858126355520408
3884.758914679497 0.005365094239509085
4439.895906956983 0.002840660284843937
5406.928111688101 0.0013642357851524098
6743.79233601153 0.0005939551741570736
8923.661423714082 0.0003447230883597001
11684.41747832521 0.0001604008768706466
14679.129631079819 0.00007289887201700265
17400.30112250123 0.00003832829266809662
20525.333529842654 0.00001710922213818031
25038.91841972898 0.000006207135307314073
28365.921860731305 0.000002992264905428985
30987.768297236416 0.0000016889689205439834
33844.95909583693 6.313003777562302e-7