# E [GeV] Flux [m^-2 s^-1 sr^-1 GeV^-1]
0.4574399022422934 2.706807390719727
0.6139944152480458 4.00989755401643
0.8166119844037609 4.982404201804426
1.0182973610212909 6.068288224243636
1.559244550320928 8.654721433535023
2.247288078792824 12.428110909421095
3.0672669905767105 17.98390007118682
4.77680080157835 23.15613677820498
7.14163801926158 20.7322015669428
11.53791669765172 15.172070344897797
17.84578350748361 10.52693095755928
29.48331327773138 6.141483116619343
46.98714089312794 3.0961346593620274
70.98187290433316 1.7614526061361515
111.51803256975624 0.842068387254983
215.0446846802175 0.2630980936516524
318.6556841644522 0.12173608257000529
478.8905184651327 0.054491555087393125
727.7205178149335 0.021809205054454356
1117.665988589817 0.008890080701015922
1875.9687614405634 0.0029092502909960345
2604.8077225019065 0.0016302381796041827
3530.2681776756735 0.0014323797798821024
4325.283243499135 0.0006413759961079637
5405.6424261882175 0.00026214144834024944
7116.630004331468 0.0000983526462475308
9482.106520624337 0.00005881132208700671
12233.170891568716 0.000026465802799572826
15107.627225580965 0.0000131701483540717
18097.08127616338 0.000006636212510742697
21911.276184089744 0.0000027418525594756246
28894.701281390862 6.998703304242683e-7
35579.14057118548 9.749045856884725e-8