# E [GeV] Flux [m^-2 s^-1 sr^-1 GeV^-1]
0.4658098452791647 3.3750620362955215
0.5871031250338471 4.520681372244896
0.8283632762842423 6.2915797614787525
1.1233194892978116 8.698066088725996
1.5908294356687627 11.357423870298389
2.128310037177305 15.003735074789471
2.882443742348122 23.187005692437474
4.267955583286652 31.885513482705363
5.976062087869675 34.38385083977913
9.461321629964878 31.15594242535103
15.31791351708103 24.14853692217283
22.41212935258014 17.345641820538113
33.8420588657078 11.24076776555127
54.664183468374354 6.437835999368828
78.42308852184989 4.013237658423812
134.3660333867763 1.7761800093246984
198.5827900585477 0.867401917856596
328.7973755558042 0.3569509178793493
489.2490123699321 0.16243443167915514
783.7662461207144 0.06647826068082471
1151.2441042832388 0.030115951571738655
1694.8145151671042 0.012859966082989348
2452.8745992559384 0.006325327210769855
3640.0578846960843 0.004925585884680113
4335.8267653995035 0.002293929195690223
5419.86114553864 0.0010009788052198904
7664.720516982036 0.0003498378425050632
10059.763529812426 0.0001921899363813673
12723.191912764149 0.00009388769648387186
15611.438389499177 0.00004696304069778571
18742.56772368506 0.000023292462072532336
21137.691930167693 0.00001268159727861887
24988.36185669462 0.00000619412090156749
27714.29302273002 0.0000035081499730187425
32199.068987784674 0.0000010731583523464812