#Energy(keV)    dEe/dx(keV/micro_m)  dEn/dx(keV/micro_m)  x(micro_m)
0.0011  0.82  9.644  0.0002449489742783178
0.0012  0.82  10.23  0.0002449489742783178
0.0013000000000000002  0.8534  10.8  0.0002449489742783178
0.0014  0.8857  11.36  0.0002449489742783178
0.0015  0.9167  11.9  0.0002449489742783178
0.0016  0.9468  12.43  0.0002449489742783178
0.0017  0.9759  12.95  0.0002449489742783178
0.0018000000000000002  1.004  13.45  0.0002449489742783178
0.002  1.059  14.43  0.0002449489742783178
0.0022500000000000003  1.123  15.61  0.0002449489742783178
0.00249999  1.184  16.74  0.0002449489742783178
0.00274999  1.241  17.83  0.0002449489742783178
0.00299999  1.296  18.88  0.0002449489742783178
0.00324999  1.349  19.9  0.0002449489742783178
0.00349999  1.4  20.89  0.00033166247903554
0.00374999  1.449  21.85  0.00033166247903554
0.00399999  1.497  22.79  0.00033166247903554
0.004499990000000001  1.588  24.6  0.00033166247903554
0.00499999  1.674  26.34  0.00033166247903554
0.005499990000000001  1.755  28.0  0.00033166247903554
0.00599999  1.833  29.61  0.00033166247903554
0.006499990000000001  1.908  31.16  0.0003741657386773942
0.00699999  1.98  32.66  0.0003741657386773942
0.00799999  2.117  35.54  0.000458257569495584
0.008999990000000001  2.246  38.28  0.000458257569495584
0.00999999  2.367  40.89  0.000458257569495584
0.0109999  2.483  43.39  0.000458257569495584
0.0119999  2.593  45.8  0.0004898979485566356
0.0129999  2.699  48.12  0.0004898979485566356
0.013999900000000001  2.801  50.36  0.0004898979485566356
0.0149999  2.899  52.54  0.0005744562646538029
0.0159999  2.994  54.65  0.0005744562646538029
0.016999900000000002  3.086  56.71  0.0005744562646538029
0.0179999  3.176  58.71  0.0005744562646538029
0.0199999  3.347  62.56  0.0005744562646538029
0.0224999  3.551  67.15  0.0006164414002968976
0.024999900000000002  3.743  71.5  0.0007000000000000001
0.0274999  3.925  75.66  0.0007000000000000001
0.0299999  4.1  79.64  0.0007000000000000001
0.0324999  4.267  83.46  0.0007000000000000001
0.0349999  4.428  87.15  0.0007000000000000001
0.037499899999999996  4.584  90.71  0.0007874007874011811
0.0399999  4.734  94.16  0.0007874007874011811
0.044999899999999995  5.021  100.8  0.000818535277187245
0.0499999  5.293  107.0  0.0008602325267042626
0.0549999  5.551  112.9  0.0009433981132056604
0.059999899999999995  5.798  118.6  0.0009433981132056604
0.0649999  6.035  124.0  0.0009433981132056604
0.0699999  6.263  129.2  0.0009433981132056604
0.0799999  6.695  139.1  0.0010295630140987001
0.0899999  7.101  148.3  0.001072380529476361
0.0999999  7.485  156.9  0.0011874342087037917
0.11  7.851  165.1  0.0011874342087037917
0.12  8.2  172.9  0.0012727922061357855
0.13  8.534  180.4  0.0012727922061357855
0.13999899999999998  8.857  187.5  0.0013152946437965905
0.149999  9.167  194.3  0.0014000000000000002
0.159999  9.468  200.9  0.0014000000000000002
0.169999  9.759  207.2  0.0014000000000000002
0.179999  10.04  213.3  0.0014866068747318507
0.199999  10.59  225.0  0.0015165750888103103
0.224999  11.23  238.5  0.0016431676725154984
0.249999  11.84  251.2  0.0016431676725154984
0.27499900000000005  12.41  263.1  0.0017291616465790584
0.299999  12.96  274.3  0.0018867962264113207
0.32499900000000004  13.49  284.9  0.0018867962264113207
0.349999  14.0  295.0  0.001972308292331602
0.374999  14.5  304.6  0.001972308292331602
0.39999900000000005  14.97  313.8  0.0021000000000000003
0.44999900000000004  15.88  331.1  0.002215851980616034
0.499999  16.74  347.0  0.0023021728866442675
0.549999  17.55  361.9  0.002428991560298224
0.5999990000000001  18.33  375.8  0.002515949125081825
0.649999  19.08  388.9  0.0026720778431774776
0.699999  19.8  401.3  0.0027586228448267447
0.799999  21.17  424.1  0.0028861739379323625
0.899999  22.46  444.9  0.0030886890422961006
0.9999990000000001  23.67  463.9  0.0032155870381627054
1.1  24.83  481.4  0.0034190641994557517
1.2  25.93  497.6  0.0035454195802471678
1.3  26.99  512.7  0.0037881393849751623
1.4  28.01  526.9  0.0038755644750152205
1.5  28.99  540.3  0.0040024992192379
1.6  29.94  552.8  0.004205948168962618
1.7  30.86  564.7  0.004332435804486894
1.8  31.76  576.0  0.004448595283907045
2.0  33.47  597.0  0.004750789408087881
2.25  35.51  620.5  0.0049929950931279716
2.5  37.43  641.8  0.0053235326616824655
2.75  39.25  661.0  0.005654201977290872
3.0  41.0  678.6  0.005957348403442592
3.25  42.67  694.7  0.006199193495931548
3.5  44.28  709.6  0.0065299310869258035
3.75  45.84  723.4  0.0067446274915669
4.0  47.34  736.2  0.007039176088151226
4.5  50.21  759.4  0.007584853327520579
5.0  52.93  779.8  0.008067837380611982
5.5  55.51  798.0  0.008577878525602935
6.0  57.98  814.3  0.009033825324855468
6.5  60.35  829.0  0.009544631999192007
7.0  62.63  842.3  0.010000499987500626
8.0  66.95  865.5  0.010967679791095291
9.0  71.01  885.0  0.011836384583140245
10.0  74.85  901.6  0.012713378779852349
11.0  78.51  915.8  0.013556917053666738
12.0  82.0  928.1  0.014433987668000829
13.0  85.35  938.8  0.015252868582663394
14.0  88.57  948.1  0.01613009609394811
15.0  91.68  956.2  0.016974687036879356
16.0  94.68  963.3  0.01776063061943466
17.0  97.6  969.5  0.018605375567292373
18.0  100.4  975.0  0.019450449866262733
20.0  105.9  984.0  0.021056827871263045
22.5  112.3  992.2  0.02296301373948986
25.0  118.4  997.9  0.024992999019725504
27.5  124.1  1002.0  0.026923781309466918
30.0  129.7  1004.0  0.028861912618535872
32.5  134.9  1005.0  0.03086178867142992
35.0  140.0  1005.0  0.03276980317304332
37.5  145.0  1004.0  0.03468529947975079
40.0  149.7  1002.0  0.0365937153074131
45.0  158.8  997.3  0.04050395042461908
50.0  167.4  990.9  0.04429988713303907
55.0  175.5  983.5  0.04811860347100693
60.0  183.4  975.3  0.05200903767615779
65.0  190.8  966.6  0.055900268335670814
70.0  198.0  957.6  0.05981346002364352
80.0  211.7  938.9  0.067598298795162
90.0  224.6  920.1  0.07547145155620104
100.0  236.7  901.5  0.08341948213696845
110.0  248.4  883.3  0.09139633471863083
120.0  260.8  865.6  0.0995088438280739
130.0  273.7  848.5  0.10755552054636712
140.0  286.6  832.0  0.11581174379137896
150.0  299.3  816.1  0.12392868917244305
160.0  311.7  800.8  0.13214147721287214
170.0  323.6  786.2  0.1404501690992218
180.0  335.1  772.1  0.14866512704733414
200.0  356.7  745.5  0.16535737056448377
225.0  381.3  715.0  0.18639463511592816
250.0  403.4  687.2  0.20758482603504527
275.0  423.4  661.9  0.2288518734902557
300.0  441.6  638.6  0.2502915699739007
325.0  458.3  617.2  0.27188663078570086
350.0  473.8  597.4  0.293577860200663
375.0  488.4  579.1  0.3154477611269416
400.0  502.3  562.0  0.33739623590075807
450.0  528.6  531.3  0.3814761984711497
500.0  553.8  504.2  0.42589300299488375
550.0  578.6  480.2  0.4703452349072966
600.0  603.5  458.7  0.5148472103449722
650.0  628.6  439.4  0.559189940896651
700.0  654.3  421.9  0.6033767479775799
800.0  707.4  391.4  0.6906691682708879
900.0  763.1  365.6  0.7760730957841536
1000.0  821.3  343.4  0.859299400674759
1100.0  881.9  324.2  0.9398960687224944
1200.0  944.4  307.2  1.0177488933916854
1300.0  1009.0  292.2  1.0953471093676197
1400.0  1074.0  278.8  1.1660026800998358
1500.0  1141.0  266.8  1.2365457371241875
1600.0  1208.0  255.9  1.2971448839663209
1700.0  1276.0  245.9  1.3674242830957772
1800.0  1345.0  236.8  1.4278115176731137
2000.0  1482.0  220.7  1.5483242199229463
2250.0  1653.0  203.8  1.678917180804342
2500.0  1822.0  189.6  1.8091415201691659
2750.0  1986.0  177.4  1.9292718445050714
3000.0  2146.0  166.9  2.029476035827967
3250.0  2301.0  157.7  2.1393690331497277
3500.0  2451.0  149.5  2.2294068538514904
3750.0  2595.0  142.3  2.3292182229237346
4000.0  2734.0  135.8  2.4091838140748
4500.0  2995.0  124.6  2.578874368789608
5000.0  3235.0  115.3  2.7285991863958325
5500.0  3456.0  107.4  2.8683006066310415
6000.0  3659.0  100.6  3.007913645701951
6500.0  3845.0  94.68  3.1375408778213547
7000.0  4016.0  89.5  3.257226275529534
8000.0  4319.0  80.81  3.486635699352601
9000.0  4577.0  73.79  3.7060376738506045
10000.0  4798.0  68.0  3.9154563718677804
