# Energy(keV)    dEe/dx(keV/micro_m)  dEn/dx(keV/micro_m)  x(micro_m)
9.999990e-03  1.345000e+00  1.888000e+01  4.000000e-04
1.099990e-02  1.410000e+00  1.993000e+01  4.000000e-04
1.199990e-02  1.473000e+00  2.093000e+01  5.000000e-04
1.299990e-02  1.533000e+00  2.190000e+01  5.000000e-04
1.399990e-02  1.591000e+00  2.282000e+01  5.000000e-04
1.499990e-02  1.647000e+00  2.371000e+01  5.000000e-04
1.599990e-02  1.701000e+00  2.457000e+01  5.000000e-04
1.699990e-02  1.753000e+00  2.541000e+01  5.000000e-04
1.799990e-02  1.804000e+00  2.621000e+01  5.000000e-04
1.999990e-02  1.902000e+00  2.776000e+01  6.000000e-04
2.249990e-02  2.017000e+00  2.957000e+01  6.000000e-04
2.499990e-02  2.126000e+00  3.128000e+01  6.000000e-04
2.749990e-02  2.230000e+00  3.289000e+01  7.000000e-04
2.999990e-02  2.329000e+00  3.442000e+01  7.000000e-04
3.249990e-02  2.424000e+00  3.588000e+01  7.000000e-04
3.499990e-02  2.516000e+00  3.727000e+01  7.000000e-04
3.749990e-02  2.604000e+00  3.861000e+01  8.000000e-04
3.999990e-02  2.689000e+00  3.990000e+01  8.000000e-04
4.499990e-02  2.852000e+00  4.233000e+01  8.000000e-04
4.999990e-02  3.007000e+00  4.459000e+01  9.000000e-04
5.499990e-02  3.154000e+00  4.672000e+01  9.000000e-04
5.999990e-02  3.294000e+00  4.874000e+01  1.000000e-03
6.499990e-02  3.428000e+00  5.064000e+01  1.000000e-03
6.999990e-02  3.558000e+00  5.245000e+01  1.000000e-03
7.999990e-02  3.803000e+00  5.584000e+01  1.100000e-03
8.999990e-02  4.034000e+00  5.894000e+01  1.200000e-03
9.999990e-02  4.252000e+00  6.182000e+01  1.200000e-03
1.100000e-01  4.460000e+00  6.451000e+01  1.300000e-03
1.200000e-01  4.658000e+00  6.702000e+01  1.400000e-03
1.300000e-01  4.848000e+00  6.939000e+01  1.400000e-03
1.399990e-01  5.031000e+00  7.162000e+01  1.500000e-03
1.499990e-01  5.208000e+00  7.374000e+01  1.500000e-03
1.599990e-01  5.379000e+00  7.576000e+01  1.600000e-03
1.699990e-01  5.544000e+00  7.768000e+01  1.600000e-03
1.799990e-01  5.705000e+00  7.952000e+01  1.700000e-03
1.999990e-01  6.014000e+00  8.297000e+01  1.800000e-03
2.249990e-01  6.378000e+00  8.691000e+01  1.900000e-03
2.499990e-01  6.723000e+00  9.051000e+01  2.000000e-03
2.749990e-01  7.052000e+00  9.382000e+01  2.100000e-03
2.999990e-01  7.365000e+00  9.688000e+01  2.300000e-03
3.249990e-01  7.666000e+00  9.974000e+01  2.400000e-03
3.499990e-01  7.955000e+00  1.024000e+02  2.500000e-03
3.749990e-01  8.234000e+00  1.049000e+02  2.600000e-03
3.999990e-01  8.504000e+00  1.073000e+02  2.700000e-03
4.499990e-01  9.020000e+00  1.116000e+02  2.900000e-03
4.999990e-01  9.508000e+00  1.155000e+02  3.100000e-03
5.499990e-01  9.972000e+00  1.190000e+02  3.300000e-03
5.999990e-01  1.042000e+01  1.223000e+02  3.400000e-03
6.499990e-01  1.084000e+01  1.253000e+02  3.600000e-03
6.999990e-01  1.125000e+01  1.280000e+02  3.800000e-03
7.999990e-01  1.203000e+01  1.330000e+02  4.200000e-03
8.999990e-01  1.276000e+01  1.373000e+02  4.500000e-03
9.999990e-01  1.345000e+01  1.411000e+02  4.800000e-03
1.100000e+00  1.410000e+01  1.445000e+02  5.200000e-03
1.200000e+00  1.473000e+01  1.476000e+02  5.500000e-03
1.300000e+00  1.533000e+01  1.503000e+02  5.800000e-03
1.400000e+00  1.591000e+01  1.529000e+02  6.100000e-03
1.500000e+00  1.647000e+01  1.552000e+02  6.400000e-03
1.600000e+00  1.701000e+01  1.573000e+02  6.700000e-03
1.700000e+00  1.753000e+01  1.592000e+02  7.000000e-03
1.800000e+00  1.804000e+01  1.610000e+02  7.300000e-03
2.000000e+00  1.902000e+01  1.642000e+02  7.900000e-03
2.250000e+00  2.017000e+01  1.675000e+02  8.600000e-03
2.500000e+00  2.126000e+01  1.704000e+02  9.400000e-03
2.750000e+00  2.230000e+01  1.728000e+02  1.010000e-02
3.000000e+00  2.329000e+01  1.748000e+02  1.080000e-02
3.250000e+00  2.424000e+01  1.766000e+02  1.150000e-02
3.500000e+00  2.516000e+01  1.781000e+02  1.220000e-02
3.750000e+00  2.604000e+01  1.794000e+02  1.290000e-02
4.000000e+00  2.689000e+01  1.805000e+02  1.360000e-02
4.500000e+00  2.853000e+01  1.822000e+02  1.490000e-02
5.000000e+00  3.007000e+01  1.835000e+02  1.630000e-02
5.500000e+00  3.154000e+01  1.844000e+02  1.770000e-02
6.000000e+00  3.294000e+01  1.850000e+02  1.900000e-02
6.500000e+00  3.428000e+01  1.854000e+02  2.040000e-02
7.000000e+00  3.558000e+01  1.856000e+02  2.180000e-02
8.000000e+00  3.803000e+01  1.855000e+02  2.450000e-02
9.000000e+00  4.034000e+01  1.849000e+02  2.720000e-02
1.000000e+01  4.252000e+01  1.840000e+02  3.000000e-02
1.100000e+01  4.460000e+01  1.829000e+02  3.270000e-02
1.200000e+01  4.658000e+01  1.816000e+02  3.550000e-02
1.300000e+01  4.848000e+01  1.802000e+02  3.830000e-02
1.400000e+01  5.031000e+01  1.787000e+02  4.110000e-02
1.500000e+01  5.208000e+01  1.772000e+02  4.390000e-02
1.600000e+01  5.379000e+01  1.757000e+02  4.680000e-02
1.700000e+01  5.544000e+01  1.741000e+02  4.960000e-02
1.800000e+01  5.705000e+01  1.725000e+02  5.250000e-02
2.000000e+01  6.014000e+01  1.693000e+02  5.830000e-02
2.250000e+01  6.378000e+01  1.654000e+02  6.560000e-02
2.500000e+01  6.723000e+01  1.616000e+02  7.300000e-02
2.750000e+01  7.052000e+01  1.579000e+02  8.050000e-02
3.000000e+01  7.365000e+01  1.544000e+02  8.810000e-02
3.250000e+01  7.666000e+01  1.510000e+02  9.580000e-02
3.500000e+01  7.955000e+01  1.477000e+02  1.035000e-01
3.750000e+01  8.235000e+01  1.447000e+02  1.113000e-01
4.000000e+01  9.373000e+01  1.417000e+02  1.190000e-01
4.500000e+01  1.109000e+02  1.362000e+02  1.338000e-01
5.000000e+01  1.189000e+02  1.311000e+02  1.484000e-01
5.500000e+01  1.223000e+02  1.265000e+02  1.632000e-01
6.000000e+01  1.236000e+02  1.222000e+02  1.782000e-01
6.500000e+01  1.242000e+02  1.183000e+02  1.937000e-01
7.000000e+01  1.249000e+02  1.146000e+02  2.095000e-01
8.000000e+01  1.276000e+02  1.081000e+02  2.419000e-01
9.000000e+01  1.323000e+02  1.023000e+02  2.751000e-01
1.000000e+02  1.389000e+02  9.725000e+01  3.087000e-01
1.100000e+02  1.471000e+02  9.274000e+01  3.421000e-01
1.200000e+02  1.564000e+02  8.870000e+01  3.752000e-01
1.300000e+02  1.665000e+02  8.506000e+01  4.077000e-01
1.400000e+02  1.773000e+02  8.175000e+01  4.396000e-01
1.500000e+02  1.885000e+02  7.873000e+01  4.708000e-01
1.600000e+02  1.999000e+02  7.596000e+01  5.011000e-01
1.700000e+02  2.115000e+02  7.340000e+01  5.307000e-01
1.800000e+02  2.231000e+02  7.105000e+01  5.596000e-01
2.000000e+02  2.460000e+02  6.682000e+01  6.152000e-01
2.250000e+02  2.739000e+02  6.229000e+01  6.810000e-01
2.500000e+02  3.004000e+02  5.842000e+01  7.431000e-01
2.750000e+02  3.254000e+02  5.507000e+01  8.022000e-01
3.000000e+02  3.489000e+02  5.213000e+01  8.587000e-01
3.250000e+02  3.710000e+02  4.953000e+01  9.129000e-01
3.500000e+02  3.916000e+02  4.721000e+01  9.651000e-01
3.750000e+02  4.108000e+02  4.513000e+01  1.020000e+00
4.000000e+02  4.288000e+02  4.324000e+01  1.060000e+00
4.500000e+02  4.616000e+02  3.996000e+01  1.160000e+00
5.000000e+02  4.908000e+02  3.720000e+01  1.250000e+00
5.500000e+02  5.174000e+02  3.484000e+01  1.330000e+00
6.000000e+02  5.423000e+02  3.280000e+01  1.420000e+00
6.500000e+02  5.664000e+02  3.100000e+01  1.500000e+00
7.000000e+02  5.904000e+02  2.942000e+01  1.580000e+00
8.000000e+02  6.393000e+02  2.674000e+01  1.720000e+00
9.000000e+02  6.906000e+02  2.455000e+01  1.860000e+00
1.000000e+03  7.444000e+02  2.273000e+01  1.990000e+00
1.100000e+03  8.003000e+02  2.118000e+01  2.110000e+00
1.200000e+03  8.574000e+02  1.985000e+01  2.230000e+00
1.300000e+03  9.153000e+02  1.870000e+01  2.340000e+00
1.400000e+03  9.732000e+02  1.768000e+01  2.440000e+00
1.500000e+03  1.031000e+03  1.678000e+01  2.530000e+00
1.600000e+03  1.087000e+03  1.598000e+01  2.620000e+00
1.700000e+03  1.142000e+03  1.525000e+01  2.710000e+00
1.800000e+03  1.196000e+03  1.460000e+01  2.790000e+00
2.000000e+03  1.298000e+03  1.346000e+01  2.950000e+00
2.250000e+03  1.415000e+03  1.228000e+01  3.130000e+00
2.500000e+03  1.518000e+03  1.131000e+01  3.300000e+00
2.750000e+03  1.608000e+03  1.049000e+01  3.450000e+00
3.000000e+03  1.686000e+03  9.790000e+00  3.600000e+00
3.250000e+03  1.753000e+03  9.187000e+00  3.750000e+00
3.500000e+03  1.811000e+03  8.659000e+00  3.880000e+00
3.750000e+03  1.859000e+03  8.194000e+00  4.020000e+00
4.000000e+03  1.900000e+03  7.780000e+00  4.150000e+00
4.500000e+03  1.963000e+03  7.074000e+00  4.410000e+00
5.000000e+03  2.004000e+03  6.495000e+00  4.660000e+00
5.500000e+03  2.031000e+03  6.009000e+00  4.900000e+00
6.000000e+03  2.046000e+03  5.597000e+00  5.150000e+00
6.500000e+03  2.052000e+03  5.241000e+00  5.390000e+00
7.000000e+03  2.051000e+03  4.931000e+00  5.630000e+00
8.000000e+03  2.037000e+03  4.416000e+00  6.120000e+00
9.000000e+03  2.010000e+03  4.005000e+00  6.610000e+00
1.000000e+04  1.978000e+03  3.668000e+00  7.110000e+00
1.100000e+04  1.942000e+03  3.387000e+00  7.620000e+00
1.200000e+04  1.905000e+03  3.149000e+00  8.130000e+00
1.300000e+04  1.868000e+03  2.944000e+00  8.660000e+00
1.400000e+04  1.831000e+03  2.766000e+00  9.200000e+00
1.500000e+04  1.796000e+03  2.609000e+00  9.750000e+00
1.600000e+04  1.762000e+03  2.471000e+00  1.031000e+01
1.700000e+04  1.730000e+03  2.347000e+00  1.088000e+01
1.800000e+04  1.700000e+03  2.236000e+00  1.147000e+01
2.000000e+04  1.643000e+03  2.044000e+00  1.266000e+01
2.250000e+04  1.581000e+03  1.849000e+00  1.421000e+01
2.500000e+04  1.526000e+03  1.689000e+00  1.581000e+01
2.750000e+04  1.477000e+03  1.557000e+00  1.748000e+01
3.000000e+04  1.433000e+03  1.444000e+00  1.919000e+01
3.250000e+04  1.393000e+03  1.348000e+00  2.096000e+01
3.500000e+04  1.356000e+03  1.265000e+00  2.278000e+01
3.750000e+04  1.322000e+03  1.191000e+00  2.464000e+01
4.000000e+04  1.306000e+03  1.127000e+00  2.654000e+01
4.500000e+04  1.274000e+03  1.017000e+00  3.041000e+01
5.000000e+04  1.225000e+03  9.283000e-01  3.441000e+01
5.500000e+04  1.179000e+03  8.543000e-01  3.856000e+01
6.000000e+04  1.136000e+03  7.919000e-01  4.288000e+01
6.500000e+04  1.096000e+03  7.384000e-01  4.736000e+01
7.000000e+04  1.058000e+03  6.920000e-01  5.200000e+01
8.000000e+04  9.892000e+02  6.156000e-01  6.176000e+01
9.000000e+04  9.274000e+02  5.550000e-01  7.220000e+01
1.000000e+05  8.719000e+02  5.059000e-01  8.331000e+01
