# Energy(keV)    dEe/dx(keV/micro_m)  dEn/dx(keV/micro_m)  x(micro_m)
9.999990e-03  1.511000e+00  7.830000e+00  5.000000e-04
1.099990e-02  1.585000e+00  8.209000e+00  5.000000e-04
1.199990e-02  1.655000e+00  8.566000e+00  5.000000e-04
1.299990e-02  1.723000e+00  8.905000e+00  6.000000e-04
1.399990e-02  1.788000e+00  9.227000e+00  6.000000e-04
1.499990e-02  1.851000e+00  9.535000e+00  6.000000e-04
1.599990e-02  1.912000e+00  9.830000e+00  6.000000e-04
1.699990e-02  1.970000e+00  1.011000e+01  6.000000e-04
1.799990e-02  2.028000e+00  1.038000e+01  7.000000e-04
1.999990e-02  2.137000e+00  1.090000e+01  7.000000e-04
2.249990e-02  2.267000e+00  1.149000e+01  7.000000e-04
2.499990e-02  2.389000e+00  1.204000e+01  8.000000e-04
2.749990e-02  2.506000e+00  1.255000e+01  8.000000e-04
2.999990e-02  2.618000e+00  1.303000e+01  9.000000e-04
3.249990e-02  2.724000e+00  1.348000e+01  9.000000e-04
3.499990e-02  2.827000e+00  1.391000e+01  9.000000e-04
3.749990e-02  2.926000e+00  1.431000e+01  1.000000e-03
3.999990e-02  3.022000e+00  1.469000e+01  1.000000e-03
4.499990e-02  3.206000e+00  1.540000e+01  1.100000e-03
4.999990e-02  3.379000e+00  1.605000e+01  1.100000e-03
5.499990e-02  3.544000e+00  1.665000e+01  1.200000e-03
5.999990e-02  3.702000e+00  1.721000e+01  1.300000e-03
6.499990e-02  3.853000e+00  1.772000e+01  1.300000e-03
6.999990e-02  3.998000e+00  1.821000e+01  1.400000e-03
7.999990e-02  4.274000e+00  1.909000e+01  1.500000e-03
8.999990e-02  4.534000e+00  1.988000e+01  1.600000e-03
9.999990e-02  4.779000e+00  2.060000e+01  1.800000e-03
1.100000e-01  5.012000e+00  2.125000e+01  1.900000e-03
1.200000e-01  5.235000e+00  2.184000e+01  2.000000e-03
1.300000e-01  5.449000e+00  2.239000e+01  2.100000e-03
1.399990e-01  5.655000e+00  2.290000e+01  2.200000e-03
1.499990e-01  5.853000e+00  2.337000e+01  2.300000e-03
1.599990e-01  6.045000e+00  2.381000e+01  2.400000e-03
1.699990e-01  6.231000e+00  2.422000e+01  2.500000e-03
1.799990e-01  6.412000e+00  2.461000e+01  2.600000e-03
1.999990e-01  6.758000e+00  2.532000e+01  2.800000e-03
2.249990e-01  7.168000e+00  2.610000e+01  3.000000e-03
2.499990e-01  7.556000e+00  2.679000e+01  3.200000e-03
2.749990e-01  7.925000e+00  2.740000e+01  3.500000e-03
2.999990e-01  8.277000e+00  2.795000e+01  3.700000e-03
3.249990e-01  8.615000e+00  2.844000e+01  3.900000e-03
3.499990e-01  8.941000e+00  2.889000e+01  4.100000e-03
3.749990e-01  9.254000e+00  2.929000e+01  4.400000e-03
3.999990e-01  9.558000e+00  2.966000e+01  4.600000e-03
4.499990e-01  1.014000e+01  3.031000e+01  5.000000e-03
4.999990e-01  1.069000e+01  3.086000e+01  5.400000e-03
5.499990e-01  1.121000e+01  3.133000e+01  5.800000e-03
5.999990e-01  1.171000e+01  3.173000e+01  6.300000e-03
6.499990e-01  1.218000e+01  3.208000e+01  6.700000e-03
6.999990e-01  1.264000e+01  3.239000e+01  7.100000e-03
7.999990e-01  1.352000e+01  3.288000e+01  7.900000e-03
8.999990e-01  1.434000e+01  3.325000e+01  8.700000e-03
9.999990e-01  1.511000e+01  3.354000e+01  9.500000e-03
1.100000e+00  1.585000e+01  3.375000e+01  1.030000e-02
1.200000e+00  1.656000e+01  3.390000e+01  1.110000e-02
1.300000e+00  1.723000e+01  3.401000e+01  1.180000e-02
1.400000e+00  1.788000e+01  3.408000e+01  1.260000e-02
1.500000e+00  1.851000e+01  3.412000e+01  1.340000e-02
1.600000e+00  1.912000e+01  3.413000e+01  1.420000e-02
1.700000e+00  1.970000e+01  3.412000e+01  1.500000e-02
1.800000e+00  2.028000e+01  3.409000e+01  1.580000e-02
2.000000e+00  2.137000e+01  3.399000e+01  1.730000e-02
2.250000e+00  2.267000e+01  3.380000e+01  1.930000e-02
2.500000e+00  2.390000e+01  3.356000e+01  2.120000e-02
2.750000e+00  2.506000e+01  3.328000e+01  2.320000e-02
3.000000e+00  2.618000e+01  3.298000e+01  2.520000e-02
3.250000e+00  2.724000e+01  3.267000e+01  2.720000e-02
3.500000e+00  2.827000e+01  3.235000e+01  2.920000e-02
3.750000e+00  2.927000e+01  3.202000e+01  3.120000e-02
4.000000e+00  3.023000e+01  3.169000e+01  3.310000e-02
4.500000e+00  3.206000e+01  3.103000e+01  3.720000e-02
5.000000e+00  3.379000e+01  3.038000e+01  4.120000e-02
5.500000e+00  3.544000e+01  2.975000e+01  4.520000e-02
6.000000e+00  3.702000e+01  2.913000e+01  4.930000e-02
6.500000e+00  3.853000e+01  2.854000e+01  5.340000e-02
7.000000e+00  3.999000e+01  2.798000e+01  5.750000e-02
8.000000e+00  4.275000e+01  2.691000e+01  6.570000e-02
9.000000e+00  4.534000e+01  2.592000e+01  7.390000e-02
1.000000e+01  4.779000e+01  2.501000e+01  8.220000e-02
1.100000e+01  5.012000e+01  2.418000e+01  9.040000e-02
1.200000e+01  5.235000e+01  2.340000e+01  9.870000e-02
1.300000e+01  5.449000e+01  2.268000e+01  1.069000e-01
1.400000e+01  5.655000e+01  2.201000e+01  1.151000e-01
1.500000e+01  5.874000e+01  2.139000e+01  1.233000e-01
1.600000e+01  6.088000e+01  2.080000e+01  1.314000e-01
1.700000e+01  6.296000e+01  2.026000e+01  1.395000e-01
1.800000e+01  6.499000e+01  1.974000e+01  1.476000e-01
2.000000e+01  6.889000e+01  1.880000e+01  1.635000e-01
2.250000e+01  7.353000e+01  1.776000e+01  1.832000e-01
2.500000e+01  7.795000e+01  1.685000e+01  2.025000e-01
2.750000e+01  8.218000e+01  1.604000e+01  2.215000e-01
3.000000e+01  8.623000e+01  1.532000e+01  2.402000e-01
3.250000e+01  9.014000e+01  1.468000e+01  2.585000e-01
3.500000e+01  9.391000e+01  1.409000e+01  2.766000e-01
3.750000e+01  9.756000e+01  1.355000e+01  2.944000e-01
4.000000e+01  1.011000e+02  1.306000e+01  3.119000e-01
4.500000e+01  1.079000e+02  1.220000e+01  3.460000e-01
5.000000e+01  1.143000e+02  1.146000e+01  3.792000e-01
5.500000e+01  1.205000e+02  1.081000e+01  4.114000e-01
6.000000e+01  1.264000e+02  1.025000e+01  4.426000e-01
6.500000e+01  1.321000e+02  9.744000e+00  4.731000e-01
7.000000e+01  1.375000e+02  9.296000e+00  5.028000e-01
8.000000e+01  1.480000e+02  8.528000e+00  5.601000e-01
9.000000e+01  1.577000e+02  7.891000e+00  6.148000e-01
1.000000e+02  1.670000e+02  7.354000e+00  6.673000e-01
1.100000e+02  1.758000e+02  6.894000e+00  7.178000e-01
1.200000e+02  1.842000e+02  6.494000e+00  7.665000e-01
1.300000e+02  1.922000e+02  6.144000e+00  8.136000e-01
1.400000e+02  1.999000e+02  5.834000e+00  8.592000e-01
1.500000e+02  2.074000e+02  5.557000e+00  9.035000e-01
1.600000e+02  2.145000e+02  5.308000e+00  9.465000e-01
1.700000e+02  2.214000e+02  5.083000e+00  9.885000e-01
1.800000e+02  2.281000e+02  4.878000e+00  1.030000e+00
2.000000e+02  2.407000e+02  4.520000e+00  1.110000e+00
2.250000e+02  2.556000e+02  4.146000e+00  1.200000e+00
2.500000e+02  2.693000e+02  3.836000e+00  1.290000e+00
2.750000e+02  2.822000e+02  3.573000e+00  1.380000e+00
3.000000e+02  2.942000e+02  3.347000e+00  1.460000e+00
3.250000e+02  3.056000e+02  3.150000e+00  1.540000e+00
3.500000e+02  3.162000e+02  2.978000e+00  1.620000e+00
3.750000e+02  3.263000e+02  2.825000e+00  1.690000e+00
4.000000e+02  3.358000e+02  2.688000e+00  1.770000e+00
4.500000e+02  3.533000e+02  2.455000e+00  1.910000e+00
5.000000e+02  3.689000e+02  2.262000e+00  2.040000e+00
5.500000e+02  3.830000e+02  2.099000e+00  2.170000e+00
6.000000e+02  3.957000e+02  1.960000e+00  2.300000e+00
6.500000e+02  4.071000e+02  1.840000e+00  2.420000e+00
7.000000e+02  4.174000e+02  1.735000e+00  2.540000e+00
8.000000e+02  4.350000e+02  1.560000e+00  2.770000e+00
9.000000e+02  4.493000e+02  1.419000e+00  2.990000e+00
1.000000e+03  4.608000e+02  1.304000e+00  3.210000e+00
1.100000e+03  4.699000e+02  1.207000e+00  3.420000e+00
1.200000e+03  4.771000e+02  1.124000e+00  3.630000e+00
1.300000e+03  4.826000e+02  1.053000e+00  3.840000e+00
1.400000e+03  4.866000e+02  9.910000e-01  4.040000e+00
1.500000e+03  4.895000e+02  9.364000e-01  4.240000e+00
1.600000e+03  4.914000e+02  8.879000e-01  4.450000e+00
1.700000e+03  4.924000e+02  8.445000e-01  4.650000e+00
1.800000e+03  4.926000e+02  8.055000e-01  4.850000e+00
2.000000e+03  4.914000e+02  7.381000e-01  5.250000e+00
2.250000e+03  4.872000e+02  6.691000e-01  5.760000e+00
2.500000e+03  4.811000e+02  6.127000e-01  6.280000e+00
2.750000e+03  4.738000e+02  5.656000e-01  6.800000e+00
3.000000e+03  4.655000e+02  5.257000e-01  7.330000e+00
3.250000e+03  4.567000e+02  4.914000e-01  7.870000e+00
3.500000e+03  4.475000e+02  4.615000e-01  8.420000e+00
3.750000e+03  4.382000e+02  4.353000e-01  8.980000e+00
4.000000e+03  4.288000e+02  4.121000e-01  9.560000e+00
4.500000e+03  4.102000e+02  3.728000e-01  1.075000e+01
5.000000e+03  3.924000e+02  3.408000e-01  1.199000e+01
5.500000e+03  3.754000e+02  3.141000e-01  1.329000e+01
6.000000e+03  3.595000e+02  2.915000e-01  1.465000e+01
6.500000e+03  3.447000e+02  2.722000e-01  1.606000e+01
7.000000e+03  3.309000e+02  2.553000e-01  1.754000e+01
8.000000e+03  3.062000e+02  2.276000e-01  2.068000e+01
9.000000e+03  2.848000e+02  2.055000e-01  2.406000e+01
1.000000e+04  2.662000e+02  1.876000e-01  2.769000e+01
1.100000e+04  2.500000e+02  1.727000e-01  3.156000e+01
1.200000e+04  2.357000e+02  1.601000e-01  3.567000e+01
1.300000e+04  2.230000e+02  1.493000e-01  4.003000e+01
1.400000e+04  2.117000e+02  1.399000e-01  4.462000e+01
1.500000e+04  2.044000e+02  1.317000e-01  4.943000e+01
1.600000e+04  1.971000e+02  1.245000e-01  5.440000e+01
1.700000e+04  1.898000e+02  1.181000e-01  5.957000e+01
1.800000e+04  1.822000e+02  1.123000e-01  6.494000e+01
2.000000e+04  1.690000e+02  1.024000e-01  7.632000e+01
2.250000e+04  1.553000e+02  9.227000e-02  9.174000e+01
2.500000e+04  1.438000e+02  8.409000e-02  1.084500e+02
2.750000e+04  1.341000e+02  7.730000e-02  1.264300e+02
3.000000e+04  1.258000e+02  7.157000e-02  1.456600e+02
3.250000e+04  1.185000e+02  6.667000e-02  1.661200e+02
3.500000e+04  1.122000e+02  6.243000e-02  1.877800e+02
3.750000e+04  1.065000e+02  5.872000e-02  2.106300e+02
4.000000e+04  1.015000e+02  5.545000e-02  2.346600e+02
4.500000e+04  9.280000e+01  4.994000e-02  2.861600e+02
5.000000e+04  8.564000e+01  4.546000e-02  3.422000e+02
5.500000e+04  7.961000e+01  4.175000e-02  4.027200e+02
6.000000e+04  7.445000e+01  3.863000e-02  4.676100e+02
6.500000e+04  6.998000e+01  3.596000e-02  5.368300e+02
7.000000e+04  6.608000e+01  3.366000e-02  6.103100e+02
8.000000e+04  5.955000e+01  2.986000e-02  7.696400e+02
9.000000e+04  5.431000e+01  2.686000e-02  9.453900e+02
1.000000e+05  4.999000e+01  2.444000e-02  1.140000e+00
