# Energy(keV)    dEe/dx(keV/micro_m)  dEn/dx(keV/micro_m)  x(micro_m)
9.999990e-03  1.755000e+00  2.474000e+01  4.000000e-04
1.099990e-02  1.841000e+00  2.620000e+01  5.000000e-04
1.199990e-02  1.923000e+00  2.760000e+01  5.000000e-04
1.299990e-02  2.002000e+00  2.895000e+01  5.000000e-04
1.399990e-02  2.077000e+00  3.025000e+01  5.000000e-04
1.499990e-02  2.150000e+00  3.151000e+01  5.000000e-04
1.599990e-02  2.220000e+00  3.273000e+01  5.000000e-04
1.699990e-02  2.289000e+00  3.392000e+01  6.000000e-04
1.799990e-02  2.355000e+00  3.507000e+01  6.000000e-04
1.999990e-02  2.483000e+00  3.728000e+01  6.000000e-04
2.249990e-02  2.633000e+00  3.990000e+01  6.000000e-04
2.499990e-02  2.776000e+00  4.238000e+01  6.000000e-04
2.749990e-02  2.911000e+00  4.474000e+01  7.000000e-04
2.999990e-02  3.041000e+00  4.699000e+01  7.000000e-04
3.249990e-02  3.165000e+00  4.914000e+01  7.000000e-04
3.499990e-02  3.284000e+00  5.122000e+01  7.000000e-04
3.749990e-02  3.399000e+00  5.321000e+01  8.000000e-04
3.999990e-02  3.511000e+00  5.514000e+01  8.000000e-04
4.499990e-02  3.724000e+00  5.881000e+01  8.000000e-04
4.999990e-02  3.925000e+00  6.226000e+01  9.000000e-04
5.499990e-02  4.117000e+00  6.553000e+01  9.000000e-04
5.999990e-02  4.300000e+00  6.864000e+01  9.000000e-04
6.499990e-02  4.476000e+00  7.161000e+01  1.000000e-03
6.999990e-02  4.644000e+00  7.445000e+01  1.000000e-03
7.999990e-02  4.965000e+00  7.979000e+01  1.100000e-03
8.999990e-02  5.266000e+00  8.476000e+01  1.100000e-03
9.999990e-02  5.551000e+00  8.941000e+01  1.200000e-03
1.100000e-01  5.822000e+00  9.378000e+01  1.200000e-03
1.200000e-01  6.081000e+00  9.791000e+01  1.300000e-03
1.300000e-01  6.329000e+00  1.018000e+02  1.300000e-03
1.399990e-01  6.568000e+00  1.056000e+02  1.400000e-03
1.499990e-01  6.799000e+00  1.091000e+02  1.400000e-03
1.599990e-01  7.022000e+00  1.126000e+02  1.500000e-03
1.699990e-01  7.238000e+00  1.159000e+02  1.500000e-03
1.799990e-01  7.448000e+00  1.190000e+02  1.500000e-03
1.999990e-01  7.851000e+00  1.250000e+02  1.600000e-03
2.249990e-01  8.327000e+00  1.319000e+02  1.700000e-03
2.499990e-01  8.777000e+00  1.383000e+02  1.800000e-03
2.749990e-01  9.206000e+00  1.443000e+02  1.900000e-03
2.999990e-01  9.615000e+00  1.499000e+02  2.000000e-03
3.249990e-01  1.001000e+01  1.552000e+02  2.100000e-03
3.499990e-01  1.039000e+01  1.602000e+02  2.200000e-03
3.749990e-01  1.075000e+01  1.649000e+02  2.200000e-03
3.999990e-01  1.110000e+01  1.694000e+02  2.300000e-03
4.499990e-01  1.178000e+01  1.777000e+02  2.500000e-03
4.999990e-01  1.241000e+01  1.854000e+02  2.600000e-03
5.499990e-01  1.302000e+01  1.924000e+02  2.800000e-03
5.999990e-01  1.360000e+01  1.990000e+02  2.900000e-03
6.499990e-01  1.415000e+01  2.051000e+02  3.000000e-03
6.999990e-01  1.469000e+01  2.109000e+02  3.100000e-03
7.999990e-01  1.570000e+01  2.214000e+02  3.400000e-03
8.999990e-01  1.665000e+01  2.308000e+02  3.600000e-03
9.999990e-01  1.755000e+01  2.393000e+02  3.900000e-03
1.100000e+00  1.841000e+01  2.470000e+02  4.100000e-03
1.200000e+00  1.923000e+01  2.542000e+02  4.300000e-03
1.300000e+00  2.002000e+01  2.607000e+02  4.500000e-03
1.400000e+00  2.077000e+01  2.668000e+02  4.700000e-03
1.500000e+00  2.150000e+01  2.725000e+02  5.000000e-03
1.600000e+00  2.220000e+01  2.778000e+02  5.200000e-03
1.700000e+00  2.289000e+01  2.828000e+02  5.400000e-03
1.800000e+00  2.355000e+01  2.875000e+02  5.600000e-03
2.000000e+00  2.483000e+01  2.961000e+02  5.900000e-03
2.250000e+00  2.633000e+01  3.056000e+02  6.400000e-03
2.500000e+00  2.776000e+01  3.140000e+02  6.900000e-03
2.750000e+00  2.911000e+01  3.215000e+02  7.300000e-03
3.000000e+00  3.041000e+01  3.282000e+02  7.800000e-03
3.250000e+00  3.165000e+01  3.343000e+02  8.200000e-03
3.500000e+00  3.284000e+01  3.398000e+02  8.700000e-03
3.750000e+00  3.399000e+01  3.448000e+02  9.100000e-03
4.000000e+00  3.511000e+01  3.494000e+02  9.500000e-03
4.500000e+00  3.724000e+01  3.575000e+02  1.030000e-02
5.000000e+00  3.925000e+01  3.645000e+02  1.110000e-02
5.500000e+00  4.117000e+01  3.704000e+02  1.200000e-02
6.000000e+00  4.300000e+01  3.756000e+02  1.270000e-02
6.500000e+00  4.476000e+01  3.801000e+02  1.350000e-02
7.000000e+00  4.645000e+01  3.841000e+02  1.430000e-02
8.000000e+00  4.965000e+01  3.906000e+02  1.590000e-02
9.000000e+00  5.266000e+01  3.957000e+02  1.740000e-02
1.000000e+01  5.551000e+01  3.996000e+02  1.890000e-02
1.100000e+01  5.822000e+01  4.027000e+02  2.040000e-02
1.200000e+01  6.081000e+01  4.050000e+02  2.190000e-02
1.300000e+01  6.329000e+01  4.068000e+02  2.340000e-02
1.400000e+01  6.568000e+01  4.081000e+02  2.480000e-02
1.500000e+01  6.799000e+01  4.090000e+02  2.630000e-02
1.600000e+01  7.022000e+01  4.095000e+02  2.780000e-02
1.700000e+01  7.238000e+01  4.098000e+02  2.930000e-02
1.800000e+01  7.448000e+01  4.098000e+02  3.070000e-02
2.000000e+01  7.851000e+01  4.093000e+02  3.370000e-02
2.250000e+01  8.327000e+01  4.077000e+02  3.740000e-02
2.500000e+01  8.777000e+01  4.055000e+02  4.100000e-02
2.750000e+01  9.206000e+01  4.029000e+02  4.470000e-02
3.000000e+01  9.615000e+01  3.999000e+02  4.850000e-02
3.250000e+01  1.001000e+02  3.966000e+02  5.220000e-02
3.500000e+01  1.039000e+02  3.932000e+02  5.590000e-02
3.750000e+01  1.075000e+02  3.897000e+02  5.970000e-02
4.000000e+01  1.110000e+02  3.861000e+02  6.350000e-02
4.500000e+01  1.178000e+02  3.788000e+02  7.110000e-02
5.000000e+01  1.241000e+02  3.716000e+02  7.880000e-02
5.500000e+01  1.302000e+02  3.644000e+02  8.650000e-02
6.000000e+01  1.360000e+02  3.574000e+02  9.430000e-02
6.500000e+01  1.434000e+02  3.507000e+02  1.022000e-01
7.000000e+01  1.544000e+02  3.441000e+02  1.101000e-01
8.000000e+01  1.666000e+02  3.317000e+02  1.258000e-01
9.000000e+01  1.726000e+02  3.202000e+02  1.419000e-01
1.000000e+02  1.765000e+02  3.095000e+02  1.582000e-01
1.100000e+02  1.802000e+02  2.996000e+02  1.749000e-01
1.200000e+02  1.842000e+02  2.903000e+02  1.920000e-01
1.300000e+02  1.889000e+02  2.817000e+02  2.092000e-01
1.400000e+02  1.942000e+02  2.737000e+02  2.267000e-01
1.500000e+02  2.002000e+02  2.662000e+02  2.444000e-01
1.600000e+02  2.066000e+02  2.592000e+02  2.621000e-01
1.700000e+02  2.135000e+02  2.526000e+02  2.800000e-01
1.800000e+02  2.207000e+02  2.463000e+02  2.978000e-01
2.000000e+02  2.359000e+02  2.349000e+02  3.336000e-01
2.250000e+02  2.558000e+02  2.223000e+02  3.780000e-01
2.500000e+02  2.761000e+02  2.111000e+02  4.220000e-01
2.750000e+02  2.965000e+02  2.012000e+02  4.654000e-01
3.000000e+02  3.169000e+02  1.924000e+02  5.081000e-01
3.250000e+02  3.370000e+02  1.844000e+02  5.501000e-01
3.500000e+02  3.568000e+02  1.771000e+02  5.913000e-01
3.750000e+02  3.763000e+02  1.705000e+02  6.318000e-01
4.000000e+02  3.954000e+02  1.645000e+02  6.715000e-01
4.500000e+02  4.326000e+02  1.537000e+02  7.487000e-01
5.000000e+02  4.683000e+02  1.445000e+02  8.231000e-01
5.500000e+02  5.025000e+02  1.365000e+02  8.949000e-01
6.000000e+02  5.351000e+02  1.294000e+02  9.643000e-01
6.500000e+02  5.662000e+02  1.232000e+02  1.030000e+00
7.000000e+02  5.958000e+02  1.176000e+02  1.100000e+00
8.000000e+02  6.508000e+02  1.080000e+02  1.220000e+00
9.000000e+02  7.012000e+02  9.999000e+01  1.340000e+00
1.000000e+03  7.485000e+02  9.325000e+01  1.460000e+00
1.100000e+03  7.940000e+02  8.746000e+01  1.560000e+00
1.200000e+03  8.391000e+02  8.244000e+01  1.670000e+00
1.300000e+03  8.846000e+02  7.803000e+01  1.770000e+00
1.400000e+03  9.308000e+02  7.412000e+01  1.870000e+00
1.500000e+03  9.779000e+02  7.062000e+01  1.960000e+00
1.600000e+03  1.026000e+03  6.749000e+01  2.050000e+00
1.700000e+03  1.075000e+03  6.464000e+01  2.140000e+00
1.800000e+03  1.124000e+03  6.206000e+01  2.220000e+00
2.000000e+03  1.225000e+03  5.753000e+01  2.370000e+00
2.250000e+03  1.351000e+03  5.280000e+01  2.560000e+00
2.500000e+03  1.477000e+03  4.887000e+01  2.720000e+00
2.750000e+03  1.600000e+03  4.554000e+01  2.880000e+00
3.000000e+03  1.720000e+03  4.267000e+01  3.020000e+00
3.250000e+03  1.836000e+03  4.018000e+01  3.150000e+00
3.500000e+03  1.947000e+03  3.799000e+01  3.280000e+00
3.750000e+03  2.053000e+03  3.605000e+01  3.400000e+00
4.000000e+03  2.154000e+03  3.431000e+01  3.520000e+00
4.500000e+03  2.342000e+03  3.134000e+01  3.730000e+00
5.000000e+03  2.511000e+03  2.889000e+01  3.930000e+00
5.500000e+03  2.663000e+03  2.682000e+01  4.120000e+00
6.000000e+03  2.799000e+03  2.505000e+01  4.300000e+00
6.500000e+03  2.922000e+03  2.352000e+01  4.470000e+00
7.000000e+03  3.031000e+03  2.219000e+01  4.640000e+00
8.000000e+03  3.217000e+03  1.995000e+01  4.960000e+00
9.000000e+03  3.367000e+03  1.816000e+01  5.260000e+00
1.000000e+04  3.487000e+03  1.668000e+01  5.550000e+00
1.100000e+04  3.583000e+03  1.545000e+01  5.830000e+00
1.200000e+04  3.660000e+03  1.439000e+01  6.100000e+00
1.300000e+04  3.720000e+03  1.348000e+01  6.370000e+00
1.400000e+04  3.767000e+03  1.269000e+01  6.630000e+00
1.500000e+04  3.803000e+03  1.199000e+01  6.900000e+00
1.600000e+04  3.829000e+03  1.138000e+01  7.160000e+00
1.700000e+04  3.847000e+03  1.082000e+01  7.420000e+00
1.800000e+04  3.858000e+03  1.032000e+01  7.670000e+00
2.000000e+04  3.864000e+03  9.460000e+00  8.190000e+00
2.250000e+04  3.850000e+03  8.578000e+00  8.840000e+00
2.500000e+04  3.820000e+03  7.856000e+00  9.490000e+00
2.750000e+04  3.780000e+03  7.254000e+00  1.014000e+01
3.000000e+04  3.735000e+03  6.743000e+00  1.080000e+01
3.250000e+04  3.686000e+03  6.304000e+00  1.148000e+01
3.500000e+04  3.637000e+03  5.922000e+00  1.216000e+01
3.750000e+04  3.587000e+03  5.586000e+00  1.285000e+01
4.000000e+04  3.537000e+03  5.289000e+00  1.355000e+01
4.500000e+04  3.441000e+03  4.785000e+00  1.498000e+01
5.000000e+04  3.349000e+03  4.375000e+00  1.645000e+01
5.500000e+04  3.262000e+03  4.033000e+00  1.796000e+01
6.000000e+04  3.180000e+03  3.743000e+00  1.951000e+01
6.500000e+04  3.114000e+03  3.495000e+00  2.110000e+01
7.000000e+04  3.091000e+03  3.279000e+00  2.270000e+01
8.000000e+04  2.998000e+03  2.923000e+00  2.599000e+01
9.000000e+04  2.880000e+03  2.640000e+00  2.938000e+01
1.000000e+05  2.771000e+03  2.410000e+00  3.292000e+01
